ecg
-0.0005
-0.005
0.0067
-0.0374
0.0008
-0.0014
-0.0088
-0.0018
0.019
-0.0074
0.0055
0.0108
0.0125
-0.0031
0.0056
0.0412
-0.0188
0.0019
0.0047
-0.0181
-0.0036
-0.011
0.0355
0.012
-0.0235
0.0014
-0.0141
-0.0108
0.0036
0.002
0.0173
-0.0195
-0.0076
0.0168
-0.0112
-0.0187
0.0165
-0.0004
-0.0041
-0.0028
0.0346
0.0151
-0.0005
-0.0032
0.0003
-0.0185
-0.0028
0.0131
-0.0009
-0.0041
-0.0288
0.0309
-0.015
0.0009
0.0306
-0.0281
0.0011
0.0037
0.0273
0.0309
0.0694
0.0946
0.1231
0.1572
0.1822
0.18
0.1693
0.1312
0.1313
0.0862
0.0602
0.0349
0.0311
0.0592
0.0153
-0.0053
-0.0181
0.0009
-0.0411
-0.0026
0.004
-0.0004
-0.0057
-0.0017
-0.0031
-0.0189
0.0132
0.0037
0.0041
-0.0715
-0.0354
-0.0379
0.0053
-0.0128
-0.0146
0.0109
-0.0017
0.0094
0.0537
0.3437
1.0042
1.2875
0.7093
0.1654
0.0068
-0.006
0.0063
-0.0002
-0.0122
0.0037
-0.0155
-0.014
-0.0373
-0.0521
-0.1327
-0.1991
-0.1353
-0.0605
-0.0313
0.0025
-0.0257
-0.0238
-0.0044
0.0057
0.0116
-0.0134
-0.0042
-0.0011
0.0125
0.0034
-0.0089
-0.0005
-0.0035
0.0067
0.008
0.0077
0.0199
0.0418
0.0613
0.0522
0.0775
0.0777
0.0688
0.1117
0.1358
0.1349
0.1902
0.2108
0.2366
0.2583
0.3126
0.3161
0.3387
0.3425
0.3675
0.33
0.3499
0.3497
0.3192
0.3181
0.2702
0.2391
0.2127
0.2094
0.198
0.1285
0.1025
0.0975
0.0879
0.0703
0.0788
0.052
-0.0013
0.0162
0.0132
0.0311
0.0081
0.0013
-0.0231
0.0399
0.0111
-0.0198
0.0121
-0.0168
0.0032
-0.0218
0.0164
0.0087
0.0116
-0.0106
0.0165
0.033
-0.0061
0.0088
0.0233
-0.0119
0.0061
0.0155
-0.0254
-0.02
-0.0002
-0.0003
0.0203
-0.0041
0.0082
-0.0098
-0.0024
0.0103
0.0104
0.0101
0.0143
0.0158
0.0079
0.0105
0.0146
-0.0224
-0.0327
0.0421
-0.0079
-0.0144
-0.0017
-0.0016
0.0082
0.0297
-0.0281
-0.0086
-0.0298
-0.0127
-0.0051
-0.0072
-0.0087
-0.024
0.026
0.0401
0.0275
0.0038
0.0073
-0.0011
0.011
-0.0018
0.0269
-0.0168
0.0003
-0.0046
-0.0046
0.0312
-0.0046
0.012
-0.0229
-0.0078
0.0003
0.0119
-0.0001
-0.0364
-0.0216
-0.0083
0.0028
0.007
0.0337
-0.0214
-0.0374
0.0119
-0.0155
0.0199
-0.0073
-0.0397
-0.0163
-0.0011
0.0125
0.0167
-0.0084
0.0216
-0.005
-0.0022
-0.004
0.0029
-0.0144
-0.0165
-0.0135
0.0146
-0.0232
-0.0214
0.0114
0.0249
-0.0118
-0.0093
0.012
0.0375
0.0049
0.0109
-0.0041
-0.0089
-0.0077
0.0023
-0.0058
-0.0008
0.0075
0.0051
0.0152
0.0152
0.0133
-0.0196
0.0032
-0.0103
0.0015
0.001
-0.0199
0.0154
0.0139
-0.0053
0.0218
0.0042
0.0103
-0.0358
-0.0028
-0.0309
0.0136
-0.0266
-0.0131
0.0172
0.0003
-0.0154
-0.012
0.0127
-0.0078
-0.0201
-0.0057
0.0217
-0.0073
-0.0074
0.0055
0.0189
0.0034
0.0026
0.0244
-0.0051
0.0069
-0.0248
0.0067
0.0134
-0.0075
-0.0239
-0.0011
0.0076
-0.0025
0.0116
0.002
-0.0113
0.025
0.0199
-0.0012
-0.0125
-0.0236
0.0218
-0.0103
0.0198
0.0175
0.0004
0.0095
0.0011
-0.0195
-0.0111
0.0024
-0.001
-0.0229
-0.0053
-0.0038
0.0079
-0.0019
0.0171
0.004
0.0208
0.0145
0.0069
0.0019
0.0102
-0.0286
0.0367
-0.0064
-0.0081
-0.0088
-0.0098
0.0256
-0.0085
0.0245
-0.0054
-0.0277
-0.0012
-0.0239
-0.0233
0.0186
0.0067
0.0018
0.0098
-0.0165
-0.0006
0.0036
-0.0031
0.0124
0.0029
0.0146
-0.0227
-0.0098
-0.0031
-0.0153
0.0243
-0.0087
0.0013
-0.0129
-0.0012
0.0004
0.0399
0.0057
-0.0001
0.0028
-0.0003
0.0021
0.0177
0.0263
0.0043
-0.0147
-0.0233
0.0033
0.0046
0.0104
-0.0308
-0.0047
0.0182
0.0014
-0.0032
-0.0116
-0.0098
-0.0002
-0.0154
-0.0012
0.0024
-0.0067
-0.0199
0.0085
-0.0044
0.0078
0.0132
-0.004
-0.013
0.0066
-0.0099
0.0148
-0.0125
0.0094
0.0031
0.0117
0.0125
-0.0035
0.0008
0.0133
-0.0189
0.006
0.0071
0.0166
0.0142
-0.0036
0.0311
-0.0072
-0.0027
-0.0209
-0.0013
-0.0011
0.0129
0.0189
-0.0098
0.0117
-0.0156
0.0065
-0.0084
-0.0079
0.0138
-0.0014
0.0075
-0.0065
-0.0089
-0.0283
-0.0046
-0.0043
-0.0117
-0.0189
-0.0035
-0.0266
-0.023
-0.0177
0.0104
-0.0122
0.0101
-0.0062
-0.0092
0.0367
0.0102
0.0145
-0.0221
-0.0263
-0.0154
0.003
-0.0085
0.025
0.0066
0.0145
-0.0111
0.0151
-0.0043
-0.0382
-0.0289
-0.0033
-0.0167
-0.0031
-0.0094
-0.007
0.0017
-0.008
0.0008
0.0198
-0.0236
0.002
0.025
0.0035
-0.0083
-0.0196
-0.0023
-0.0183
-0.0069
-0.0048
0.0236
-0.0094
-0.0112
-0.0073
0.0085
-0.0096
-0.0035
0.035
0.0077
0.0075
0.0226
0.0485
0.084
0.0919
0.1701
0.181
0.1942
0.1571
0.1287
0.1112
0.0594
0.07
0.02
-0.0065
-0.0114
-0.0054
0.0267
-0.0125
0.0212
-0.0123
-0.0036
-0.0079
-0.0139
-0.0173
0.0084
0.0079
-0.0023
-0.0015
-0.0094
-0.0033
-0.018
-0.042
-0.0289
-0.0111
0.0132
-0.0025
-0.001
-0.0012
0.027
0.0784
0.3846
1.0387
1.2192
0.6409
0.1267
0.0152
-0.0124
-0.0178
-0.0211
-0.004
-0.0142
0.0247
-0.0029
0.0079
-0.0666
-0.1438
-0.1763
-0.1486
-0.0685
-0.0131
-0.019
0.019
0.0097
-0.0227
0.0272
0.0101
0.008
-0.0133
-0.0058
0.0029
0.008
-0.0095
0.0145
0.009
-0.0098
0.007
-0.0102
0.0327
0.0494
0.0394
0.0617
0.0421
0.0696
0.0845
0.153
0.1428
0.1635
0.1945
0.2233
0.2349
0.2597
0.2963
0.3126
0.3248
0.3268
0.3451
0.3466
0.361
0.299
0.3241
0.3223
0.2657
0.2541
0.2278
0.2093
0.1782
0.1654
0.112
0.1116
0.0825
0.0535
0.064
0.039
0.0623
0.0223
0.0053
0.0091
0.0013
0.0121
-0.0099
0.0098
-0.0174
-0.0133
-0.0225
0.0106
0.0054
-0.0095
-0.004
0.0088
0.0172
0.0071
-0.0242
-0.0171
0.0324
-0.0114
0.0042
-0.0354
-0.0082
-0.0088
0.0178
-0.0226
0.0226
-0.0069
0.0073
0.0154
0.0187
0.0057
-0.0028
-0.0079
0.0185
-0.0039
-0.0064
-0.0284
-0.0042
0.0286
-0.0229
-0.0057
0.0135
-0.0193
-0.0269
0.0291
-0.0083
-0.0091
-0.0128
0.001
-0.0006
-0.0043
-0.0225
0.0158
-0.0202
0.0222
-0.0114
-0.0113
0.013
0.0301
0.012
0.0174
0.0206
-0.0128
0.0098
0.0026
-0.0047
0.005
0.0093
-0.0154
-0.0289
-0.0273
-0.0085
-0.0136
-0.0066
-0.0226
-0.0065
0.0324
0.0126
0.0109
-0.0001
-0.0279
0.0151
-0.0165
0.0218
-0.0166
-0.014
0.0042
-0.0011
-0.0159
0.0238
0.0085
-0.0086
0.0012
0.0098
0.0187
0.0346
0.0003
-0.0051
0.0188
-0.0141
0.0228
0.0038
-0.0224
0.0161
-0.0076
-0.0166
-0.0122
-0.0015
0.0114
-0.0212
0.0047
-0.0006
-0.0272
0.0166
0.0178
0.0024
0.0146
0.0179
-0.0229
-0.0013
0.0298
0.0011
-0.0204
0.0021
-0.0409
-0.0054
-0.011
-0.0225
-0.0004
-0.006
-0.0193
-0.008
-0.0105
-0.0148
-0.0015
-0.0125
-0.006
0.0143
-0.0101
0.0266
-0.0207
0.0288
0.013
-0.0009
0.01
0.017
-0.0186
-0.0069
0.0071
0.0057
0.0116
0.0016
0.0059
0.0107
0.0164
0.0202
0.0072
-0.0006
-0.0159
0.012
0.0128
-0.0165
-0.0098
0.0071
-0.0041
0.006
-0.0042
-0.0071
0.0032
0.0097
0.0183
0.0104
0.0036
0.0023
-0.0214
0.0166
0.0081
-0.0303
0.0164
-0.0187
-0.0229
-0.0114
-0.0113
0.025
-0.0437
-0.0096
0.0124
-0.0044
-0.0051
-0.0102
0.0092
-0.0113
0.0037
-0.002
0.0095
0.005
-0.0048
0.0036
-0.0063
-0.0086
-0.0062
-0.0001
-0.0125
-0.0184
0.0265
-0.0047
-0.009
0.0104
0.0406
0.0095
-0.001
0.0278
-0.0225
0.0105
-0.0342
-0.0158
0.0209
0.0145
0.0299
-0.0
-0.0061
-0.0053
-0.0053
0.0219
-0.0146
-0.0136
-0.0145
-0.0025
0.0118
-0.0073
0.0079
0.0022
-0.0011
-0.0052
-0.0109
0.0175
0.0001
-0.0079
-0.0107
0.0068
-0.003
0.0063
-0.0082
0.0062
-0.0024
-0.0017
0.0041
0.0032
0.0026
-0.0124
0.0111
-0.0129
-0.0396
0.0137
0.0089
-0.0201
-0.0019
0.0058
-0.0093
-0.0184
0.0085
-0.0063
-0.0007
0.013
-0.0223
0.0024
-0.0051
0.0011
-0.0195
0.018
-0.0069
0.0228
-0.0077
-0.0243
0.0018
-0.002
0.0125
-0.0046
-0.002
-0.0071
0.0097
0.0012
0.0008
0.0005
-0.0166
0.0182
-0.0131
-0.0027
-0.0047
-0.0318
-0.0013
0.0099
-0.0193
-0.0011
0.0062
-0.013
0.0102
0.0102
-0.0229
0.0251
-0.0105
-0.0229
-0.0063
-0.0175
-0.0235
-0.0361
0.0012
-0.0041
0.0023
-0.0101
0.0204
-0.0141
0.0054
0.0097
-0.0194
0.0041
0.0066
-0.001
-0.0115
-0.0082
0.0024
-0.0004
-0.0078
0.0117
0.04
0.022
-0.0208
0.0124
-0.0044
-0.0085
-0.0048
-0.0099
-0.0012
-0.0122
0.0076
0.0162
0.0029
-0.0091
0.0056
0.0267
-0.0144
-0.0056
0.0104
0.0108
-0.0187
-0.006
-0.0002
0.0029
0.0019
0.0024
0.0027
0.0129
0.0079
0.008
0.0085
0.001
-0.0056
-0.0248
0.0027
0.0136
0.0021
0.0013
0.0151
0.0297
0.0225
0.0923
0.1081
0.1122
0.1638
0.176
0.1789
0.1875
0.1209
0.1078
0.0758
0.0615
0.0333
0.012
0.0142
0.0005
-0.0308
-0.0108
0.0042
-0.0038
-0.0027
-0.0013
-0.0014
-0.0025
0.0061
-0.0105
0.0066
0.0001
-0.0015
-0.0222
-0.0392
-0.0495
-0.0241
0.0034
-0.0069
0.0039
0.014
0.0149
-0.0133
0.0576
0.4501
1.1086
1.2207
0.5642
0.1094
-0.0214
-0.0169
-0.0095
0.0021
0.0328
0.0135
0.0239
0.0194
0.0227
-0.072
-0.125
-0.1945
-0.1163
-0.0622
-0.0062
-0.0053
-0.0055
-0.0235
0.0097
-0.011
-0.0028
-0.0147
-0.0012
0.0096
-0.0119
0.0242
0.0019
0.0217
0.0054
0.0081
0.0092
0.0346
0.0145
0.0363
0.0379
0.0263
0.0752
0.0853
0.0914
0.1622
0.1267
0.1691
0.19
0.2069
0.2301
0.2683
0.3049
0.3176
0.3416
0.3461
0.3811
0.3502
0.3736
0.323
0.3122
0.2854
0.2815
0.2695
0.1994
0.2109
0.1451
0.1478
0.1087
0.0882
0.0668
0.0966
0.0462
0.0287
0.0471
0.0002
0.0495
0.0274
0.0176
0.0083
0.0122
-0.0109
0.0335
-0.0019
0.0061
-0.0014
-0.0172
-0.0001
-0.01
-0.0137
0.0021
-0.0003
-0.0032
0.0079
0.0141
0.009
0.0096
-0.0106
0.0142
0.0096
0.0069
-0.0137
0.0009
-0.0178
0.0165
0.007
0.0246
0.0242
-0.0006
0.0274
-0.0182
0.0088
0.0227
-0.0034
-0.018
-0.0108
-0.0115
-0.0258
-0.0041
0.033
0.0195
0.0115
-0.0057
-0.0062
-0.0167
-0.0021
0.0052
-0.0151
-0.0056
0.0039
0.0267
0.0057
-0.0195
0.0069
0.0238
-0.0073
-0.0147
-0.0003
-0.0096
-0.0058
-0.0017
0.026
-0.0052
0.0083
-0.0336
-0.0324
-0.0008
-0.022
0.014
0.025
0.0003
-0.0035
-0.0052
0.0179
-0.0143
-0.0107
0.0046
0.0448
-0.0125
0.0209
0.0167
0.0212
-0.0109
0.0049
-0.0039
0.0125
0.0143
0.0026
-0.0218
0.0092
0.0091
-0.0159
0.0148
0.0247
-0.0074
-0.0135
-0.0275
-0.0138
-0.0062
-0.0362
-0.0239
-0.0094
0.0178
0.0191
-0.0083
-0.0114
0.0119
-0.0205
0.0062
-0.0235
0.0135
-0.0023
-0.0164
0.0171
0.0064
0.0041
0.0104
-0.001
0.0031
-0.0099
0.0072
0.0104
0.0194
0.0087
-0.0096
0.0082
-0.0228
0.0154
0.0051
-0.0086
-0.0012
0.0147
0.0106
-0.0132
0.0322
-0.0106
-0.0014
-0.0097
0.0133
-0.0043
0.0227
0.011
0.0092
0.0169
-0.028
0.0028
0.0065
-0.0097
-0.0113
0.0132
-0.0207
-0.019
-0.0002
0.0248
-0.0008
0.0176
0.0072
-0.0015
0.0142
-0.0137
0.0053
-0.0029
0.0137
-0.0246
-0.0029
0.0175
-0.0054
0.0184
0.0116
0.0126
0.0088
0.0208
0.0181
-0.0114
0.0137
-0.0044
0.0241
0.0133
0.0015
-0.0086
0.0045
0.0221
-0.0191
0.0185
0.0164
0.0013
0.012
0.0062
0.0173
-0.0079
0.0291
-0.017
0.0027
-0.0109
-0.0001
-0.0129
0.0009
-0.0028
-0.0249
-0.0026
0.0282
0.0132
0.0049
-0.021
-0.004
0.0064
-0.0166
-0.0013
0.0158
0.0152
-0.0259
-0.0032
0.0259
0.0128
-0.0109
0.0229
-0.0169
0.0176
0.006
-0.0062
0.0103
-0.0216
0.0306
0.0099
-0.0163
0.0094
0.0298
0.0198
0.012
-0.0263
0.0257
-0.0159
-0.0079
0.0117
-0.0108
-0.0358
0.0125
-0.013
-0.0149
-0.0238
0.0235
0.0164
-0.0067
0.0102
0.0207
0.0182
-0.0047
-0.0171
0.0004
0.0008
0.0025
0.0216
-0.0244
0.003
-0.0163
-0.0099
-0.0093
-0.0169
-0.027
-0.0005
0.004
-0.0175
0.0063
0.0076
0.01
0.0013
-0.0184
-0.0108
0.0022
0.0017
0.0011
-0.0111
-0.0
-0.03
-0.0002
0.0161
0.0165
0.0053
-0.0168
-0.0056
0.0152
-0.0164
-0.0025
0.0161
0.0117
-0.0017
0.01
-0.0049
-0.0065
-0.0054
-0.0077
0.0153
-0.0187
0.011
-0.0094
-0.0137
-0.0101
0.0293
-0.0026
0.0021
0.0116
0.0082
-0.0067
0.0181
-0.0
0.0052
0.0251
-0.0022
-0.0121
-0.0067
-0.0018
-0.0113
-0.0119
0.0032
-0.008
0.0232
-0.0157
-0.0119
0.0097
0.0113
0.0023
0.0226
-0.0204
0.0192
0.0212
-0.0021
0.0209
-0.0163
0.0136
-0.0263
-0.002
0.0091
0.0225
-0.0016
0.0052
0.0277
0.0165
-0.0204
0.0287
-0.0148
0.0144
-0.0139
-0.0295
-0.002
-0.0089
-0.0317
0.0037
0.011
-0.0572
0.0406
-0.0306
-0.0126
-0.0022
0.0055
0.0088
-0.0296
0.014
-0.0158
0.0018
0.0547
0.0078
0.0273
0.0855
0.099
0.1181
0.1681
0.1743
0.1892
0.1694
0.1284
0.1005
0.0688
0.0365
0.0307
0.0056
0.0022
-0.0016
-0.0056
-0.002
0.0064
-0.0024
-0.0132
-0.0249
-0.0005
-0.0157
0.008
-0.0205
0.0112
0.0191
-0.0146
-0.0133
-0.0437
-0.0637
0.0055
-0.0353
-0.0004
-0.0017
0.0276
0.0029
0.0044
0.0879
0.4776
1.1408
1.1613
0.4868
0.1006
0.0041
0.0026
-0.0009
0.0018
-0.0297
-0.0013
0.0175
-0.027
-0.0148
-0.0555
-0.1366
-0.1766
-0.1277
-0.0736
-0.0064
0.012
-0.0056
0.0039
-0.0119
0.0007
-0.007
0.0062
-0.0273
-0.0067
0.0164
-0.0044
0.0116
-0.002
-0.0032
0.0064
0.0262
0.0461
0.0212
0.037
0.0194
0.0555
0.0742
0.09
0.1003
0.116
0.1446
0.1777
0.1567
0.2285
0.2519
0.2809
0.2986
0.3022
0.3506
0.3266
0.3696
0.3384
0.3628
0.3548
0.2983
0.2821
0.2629
0.24
0.2287
0.1877
0.1619
0.159
0.1199
0.0833
0.0822
0.0341
0.0448
0.0452
0.0221
0.0147
-0.0224
0.0169
0.0352
0.0187
-0.0022
0.0043
-0.0086
-0.0173
-0.023
-0.0206
0.0001
0.008
0.0036
0.0017
-0.005
-0.0255
0.0255
0.0023
-0.0067
-0.0042
-0.0214
-0.0002
0.0034
-0.0202
-0.0008
0.0022
-0.0017
-0.013
-0.0102
-0.0035
-0.0047
-0.0035
0.0105
-0.0179
-0.008
-0.002
-0.0008
0.004
-0.0153
-0.006
0.0317
0.0027
0.0246
-0.0151
0.0055
0.0333
-0.0065
0.0125
0.0058
-0.0227
0.0189
0.0014
-0.0112
-0.017
-0.0072
-0.017
0.0248
0.0084
0.0262
0.0028
-0.0183
-0.0123
0.018
-0.0036
-0.0093
0.015
-0.0143
0.0241
0.0489
0.0096
0.0012
-0.0
0.0277
-0.0366
0.0017
0.0179
-0.0184
0.0197
-0.0063
0.01
-0.0049
-0.007
-0.0044
0.0028
0.0118
-0.0105
0.0045
0.0176
0.0199
0.0014
0.0131
-0.0125
0.0349
-0.0194
0.0172
0.0153
-0.0085
0.0217
0.0046
0.0044
-0.0089
-0.0155
-0.0002
0.0088
0.0022
-0.0018
0.021
0.0149
-0.0123
-0.0007
-0.0129
-0.0048
0.0261
0.0307
-0.0122
0.0176
0.0036
0.0014
0.0129
0.0052
-0.0203
0.0331
-0.0242
-0.0036
-0.0222
-0.0015
0.0031
-0.0056
0.035
0.0298
-0.0026
0.0055
-0.0056
-0.0122
-0.0097
-0.0105
-0.0002
-0.008
0.0007
0.0179
-0.0013
-0.0024
-0.0104
-0.0124
0.0103
-0.0191
-0.002
-0.0065
0.0286
0.0005
-0.0227
0.0007
0.0008
0.0097
0.0101
0.0075
-0.0169
-0.0008
0.0011
-0.01
-0.0013
0.023
-0.0116
0.0132
-0.017
0.0162
-0.0136
-0.0062
0.0073
-0.0011
0.0134
0.0247
-0.0361
-0.0077
-0.012
-0.0187
0.0245
-0.0166
0.0051
-0.0003
0.0165
-0.0068
-0.0167
-0.0028
-0.0096
-0.0143
-0.0195
-0.021
-0.0013
-0.0114
0.008
0.0101
-0.0095
0.0124
0.0114
-0.0052
0.0126
-0.0005
0.0073
0.003
-0.0274
-0.0005
0.0043
0.0057
0.0061
-0.0222
-0.0144
0.0153
0.0046
-0.0043
0.0102
-0.0084
-0.0008
0.0055
0.0409
0.013
-0.002
0.0026
0.0072
-0.0121
0.028
-0.0181
-0.0059
-0.0074
0.0046
0.0151
0.0173
0.008
0.0255
-0.0159
-0.0065
0.0046
0.0144
-0.0277
0.0037
0.0196
-0.0074
-0.0073
0.012
0.0068
-0.0173
-0.017
0.0036
0.0196
-0.0048
0.0036
-0.0011
-0.0108
-0.0091
-0.0071
-0.0075
0.0007
0.0203
0.0123
0.0029
-0.0044
-0.0092
-0.035
0.0034
-0.0149
0.0241
-0.0111
-0.0046
0.0285
-0.0248
0.0357
-0.0034
0.0029
0.0179
-0.0142
0.0261
0.026
-0.0075
0.0113
0.0083
-0.011
-0.0081
0.0097
0.0173
-0.0115
-0.0138
0.0131
0.005
0.0038
-0.0008
0.0078
0.0138
-0.0162
-0.0039
0.0335
-0.0081
0.0083
0.0109
0.0035
-0.004
-0.0075
0.0113
-0.0117
-0.0227
-0.0054
0.0134
-0.0011
-0.0132
-0.0005
-0.0183
-0.0084
-0.0017
0.0076
0.0125
0.0004
0.0147
-0.0157
0.0199
-0.0012
0.0005
0.0092
0.0266
-0.0237
0.0341
0.0096
-0.0003
-0.0023
0.0203
0.0192
0.0006
-0.0073
-0.0067
-0.0052
0.006
0.0116
0.0042
-0.0002
-0.0049
0.0017
0.0056
0.0121
0.006
0.0007
-0.0011
0.0023
0.0015
-0.0039
-0.0135
-0.0187
-0.0029
0.0114
-0.0115
0.0215
0.0143
0.0268
-0.0425
-0.0126
0.0138
-0.0038
-0.0116
-0.019
0.0192
0.0065
-0.0092
-0.0196
-0.0018
0.0186
0.023
0.0294
0.0341
0.0219
0.0826
0.1049
0.146
0.1406
0.1476
0.1757
0.2144
0.1184
0.0896
0.0472
0.052
0.0422
0.0102
0.0165
0.0149
0.0202
0.001
0.0244
0.0201
0.0047
-0.0026
0.0069
0.037
-0.0053
-0.0336
-0.0029
-0.0046
0.0079
-0.0159
-0.0237
-0.0435
-0.0158
0.0192
-0.0058
0.0014
-0.0056
0.0269
0.0073
0.1194
0.5608
1.2207
1.1241
0.4403
0.0901
-0.0018
-0.0016
-0.0039
0.0083
-0.0046
-0.0109
-0.017
-0.0021
-0.0198
-0.0705
-0.1454
-0.178
-0.119
-0.0757
-0.0068
0.0225
0.0151
-0.01
0.0011
0.028
-0.0001
0.0077
0.0019
0.007
0.0088
0.0131
-0.0212
-0.0131
0.0091
-0.0039
0.0338
-0.0086
0.0089
0.0773
0.0485
0.0437
0.0572
0.1038
0.0943
0.1097
0.1239
0.1706
0.2221
0.2312
0.2802
0.2679
0.3203
0.3088
0.3089
0.3477
0.3415
0.3518
0.3579
0.3302
0.2943
0.2798
0.2549
0.2514
0.2155
0.2045
0.1741
0.1702
0.1035
0.1
0.0817
0.0522
0.0564
0.0473
0.0101
0.0208
0.0209
0.0335
0.0304
-0.0093
0.0329
0.0001
0.0277
0.0249
-0.0054
0.0069
0.0255
0.0193
-0.0056
-0.0027
-0.0023
-0.0043
0.0136
-0.0115
0.0155
0.0108
-0.0018
-0.0073
-0.0034
0.0185
-0.0317
-0.0192
0.0052
0.0007
-0.0058
-0.0106
-0.0069
-0.0046
0.021
-0.0148
0.0036
0.0225
0.015
0.0139
0.001
-0.0246
-0.0215
-0.0072
0.0009
0.0193
0.0252
0.0087
-0.0004
-0.0012
0.0083
0.0027
0.0132
0.0062
-0.005
0.0059
-0.0026
-0.012
-0.0109
-0.0049
0.0064
-0.0211
-0.0151
0.0181
0.0016
0.0073
-0.0266
-0.0027
-0.0131
-0.0202
-0.0065
0.012
-0.032
-0.0116
0.0254
0.0274
0.005
-0.0043
0.0146
-0.0045
-0.0269
0.0038
-0.0102
0.0085
-0.012
0.0089
0.0023
-0.0175
-0.001
0.0081
-0.0067
-0.0221
0.0032
-0.0257
-0.0136
-0.0098
0.0052
0.0094
-0.0133
0.0012
0.0027
0.0158
-0.0108
0.0018
-0.0272
-0.0219
0.0057
-0.0162
-0.0151
-0.0267
-0.0273
0.0119
0.0189
-0.0164
0.0077
0.0089
-0.0091
0.0103
0.0008
-0.0118
0.012
0.0001
-0.0028
0.0002
-0.0111
0.0072
0.0066
0.0097
-0.0025
-0.0341
-0.0052
-0.0207
-0.0191
0.003
0.0092
-0.0222
0.0176
0.0115
-0.0207
-0.0133
-0.0212
-0.0018
-0.0017
-0.0232
0.011
-0.0031
-0.0261
0.0247
0.0067
0.013
0.0105
0.0122
0.0145
-0.0047
-0.0035
0.0284
0.0214
0.0164
-0.0013
0.0035
-0.0026
-0.0068
-0.0192
-0.0092
-0.0229
0.0053
0.003
0.0136
0.0137
-0.0226
0.0166
-0.0016
0.0049
-0.0235
0.004
-0.0133
-0.0297
0.0078
-0.0093
-0.0082
0.0222
-0.0125
-0.0133
0.006
-0.011
0.0113
-0.0239
-0.0093
0.0006
-0.0103
-0.0244
0.013
0.0046
-0.0154
-0.0068
-0.0098
-0.0145
-0.02
0.0305
0.03
-0.0045
0.031
-0.0018
0.0191
0.0057
0.0129
-0.0072
-0.0262
0.0059
-0.0314
0.0346
0.0091
-0.0347
-0.0037
0.0051
-0.0024
0.0019
0.0071
-0.0026
0.0193
-0.0262
0.0245
0.0023
0.0227
-0.0033
-0.0043
0.0151
-0.0023
0.0043
0.0082
0.0365
-0.0177
0.0088
0.0132
0.0026
0.0408
-0.0135
-0.0091
-0.0134
-0.0165
-0.0038
-0.0057
-0.0012
-0.0126
-0.0245
-0.0216
0.0058
0.0069
0.0171
0.0154
0.0139
-0.0196
0.0145
0.021
0.0346
0.0206
0.0204
0.0124
-0.0272
-0.0078
-0.0066
0.0003
-0.0296
-0.0002
0.0168
-0.0254
-0.0128
-0.0009
0.0004
0.0154
-0.0026
0.0201
-0.0261
0.0067
-0.0153
-0.0098
-0.0025
0.0138
0.0162
0.0037
-0.0224
-0.0002
-0.0211
-0.0135
-0.0022
0.0078
0.0231
0.0115
0.0087
0.0019
-0.0206
0.0207
-0.0064
0.0015
0.0127
-0.0111
-0.015
-0.0042
-0.013
-0.0053
-0.0279
0.0139
-0.0123
0.0056
0.0134
0.0097
-0.0241
0.0067
0.0162
0.0304
-0.0097
0.0007
-0.0106
0.0255
-0.009
0.0073
-0.0311
-0.0077
-0.0012
0.0167
-0.0252
-0.0023
0.0115
-0.0002
0.0073
-0.0108
-0.0356
0.0417
-0.0178
0.0183
0.0107
-0.0229
-0.0124
0.017
0.003
0.0016
-0.0327
0.0073
0.0072
-0.0004
0.0206
-0.0211
0.0013
0.0086
-0.0228
-0.0055
-0.0291
-0.0047
0.0353
0.0073
-0.0093
-0.0023
0.0029
-0.0238
0.0109
0.0129
0.0012
-0.0153
-0.0121
-0.0031
0.0056
0.0228
-0.0056
0.0274
0.0303
0.021
-0.0084
0.0361
0.0311
0.0906
0.1257
0.169
0.2173
0.1839
0.1487
0.1269
0.0814
0.0629
0.0269
0.0214
-0.0286
0.0074
-0.0198
0.0115
-0.0152
-0.0004
0.001
-0.0252
0.018
-0.0005
0.0069
0.0115
-0.0146
0.0148
0.0053
-0.0069
0.014
-0.0283
-0.0458
-0.0454
0.021
-0.0003
0.0015
0.0176
-0.0017
0.0036
0.1258
0.5938
1.2613
1.0848
0.4048
0.0595
0.0238
0.0117
-0.0016
-0.0021
0.0099
0.014
-0.0207
-0.0141
-0.0389
-0.0632
-0.171
-0.1601
-0.1245
-0.0334
0.0128
0.0213
-0.0071
0.0091
-0.0004
0.0053
-0.0169
-0.0336
0.0147
0.0185
-0.0119
0.0011
-0.0073
0.0069
-0.0241
0.0145
0.0119
0.0074
0.025
0.0329
0.0495
0.06
0.088
0.0876
0.0981
0.1273
0.1401
0.1808
0.1782
0.242
0.2516
0.2831
0.2931
0.34
0.3428
0.3365
0.3751
0.3629
0.3566
0.3495
0.3125
0.2847
0.276
0.2238
0.1981
0.1537
0.143
0.1374
0.1331
0.0966
0.0733
0.063
0.0529
0.0158
0.0215
-0.0023
-0.0059
-0.015
-0.005
-0.0129
0.0479
-0.0103
0.02
-0.0069
0.0081
0.0206
-0.0119
0.0178
0.003
-0.0256
0.0029
0.0054
-0.0186
-0.0124
-0.0271
-0.0148
-0.0358
-0.0175
0.0174
-0.0036
0.0001
0.0104
0.0285
-0.0336
-0.0072
-0.0024
0.0344
0.008
-0.0067
0.0111
0.0307
0.0353
-0.0232
0.0188
-0.0111
-0.0186
-0.0106
0.0112
-0.0158
0.0007
-0.0078
0.007
-0.0024
-0.008
0.0002
-0.0077
0.0231
0.0139
-0.0148
-0.0067
0.0234
-0.0053
-0.0207
0.0221
0.0178
-0.0
0.0064
-0.0241
-0.0036
-0.0002
0.0053
0.0067
0.0062
-0.0109
0.0093
0.0182
-0.0188
0.0082
0.0007
-0.0281
-0.0026
0.0027
-0.0276
-0.0043
-0.0107
0.01
-0.0199
-0.0263
0.0003
-0.0173
0.009
-0.0041
-0.0028
-0.0225
-0.0051
0.0038
0.0015
-0.0154
-0.0053
-0.0044
0.0003
0.0156
-0.0096
-0.0199
-0.0129
0.0186
0.0032
0.0191
0.0004
0.0011
-0.017
-0.0139
-0.0002
0.0056
-0.0054
0.0129
0.0092
0.0047
-0.0075
-0.0256
0.0135
0.0217
-0.015
0.0106
-0.0012
-0.021
0.0251
-0.0159
-0.0104
-0.0069
0.0031
-0.0229
-0.0094
0.0144
-0.0249
0.0148
0.0127
0.0073
0.0008
0.0149
-0.0064
-0.0097
0.0023
-0.0035
0.0286
-0.0221
-0.0193
0.0079
0.0109
-0.0051
0.0081
-0.0178
-0.0021
-0.0318
0.0014
0.0123
-0.0095
0.0072
-0.0045
0.005
-0.0155
0.0129
0.0099
0.02
0.0047
0.0106
-0.0032
0.0143
-0.0138
0.0157
0.012
0.0075
0.0099
0.0056
-0.0114
0.0328
-0.0247
0.0154
-0.007
-0.0006
-0.0043
0.0094
-0.0141
-0.0114
-0.0149
-0.0205
0.0079
0.0071
0.0076
0.0169
-0.0032
-0.0015
-0.0284
0.0001
-0.0204
-0.0025
-0.0127
0.0311
0.0442
0.0116
-0.0095
-0.003
0.0104
-0.0062
-0.0293
-0.0254
0.0173
0.0216
0.025
0.013
0.015
0.0378
0.0124
0.0005
-0.014
0.0106
0.0097
0.0282
0.0227
-0.0089
0.0122
0.0103
0.0015
-0.002
-0.0074
-0.0196
-0.0337
-0.0009
-0.0078
-0.0076
0.0002
0.0039
-0.006
0.0071
-0.0063
0.014
-0.0167
-0.0043
0.0112
0.0329
0.014
0.0107
-0.0058
-0.0154
0.0042
-0.0078
0.0134
0.0256
-0.0103
0.0104
0.0076
-0.0119
-0.0045
0.0119
0.0154
0.0024
-0.0287
-0.0127
0.0226
0.026
0.0019
0.0053
-0.003
-0.0165
0.0154
0.0058
0.0121
-0.0015
-0.0096
-0.0224
0.005
0.0088
0.0092
-0.0048
0.0222
-0.0121
0.0
0.0068
0.0086
-0.0154
0.0215
0.003
-0.0021
0.0007
0.0011
-0.0147
0.0128
-0.0189
-0.0003
-0.023
0.0053
0.0034
0.0154
0.0082
0.0034
-0.0135
0.0178
0.001
0.0031
0.0157
0.0317
-0.0078
-0.0097
0.0047
0.0038
-0.0084
0.0111
-0.0026
0.0168
-0.002
-0.0069
-0.0147
-0.0065
0.0031
-0.0055
0.006
0.0017
0.0095
0.0243
0.0186
-0.0036
0.0119
0.0098
-0.0045
0.0159
0.0143
-0.0076
0.0296
0.0113
-0.0098
-0.0211
-0.0041
-0.011
-0.0008
-0.0095
-0.0064
-0.0108
0.0166
-0.0019
-0.0136
-0.0155
0.027
0.0113
-0.0317
-0.0037
-0.0158
-0.017
-0.0016
0.0041
0.005
0.0033
0.0059
-0.0276
0.0218
0.0029
-0.0065
0.0098
0.0138
-0.0093
0.0141
0.0071
0.0026
0.0086
0.0011
0.031
0.0008
0.0057
-0.0222
-0.0077
0.0196
0.0555
0.0589
0.0933
0.1048
0.139
0.1425
0.1769
0.1889
0.1607
0.1161
0.1003
0.0682
0.0443
0.0165
0.0208
-0.016
-0.0163
-0.0093
0.0008
-0.0047
-0.0038
0.0067
-0.0037
-0.0111
-0.0005
-0.0261
0.0002
0.0163
-0.0029
0.0161
0.0259
-0.0427
-0.0402
-0.017
-0.0214
-0.0142
-0.0329
-0.0135
-0.0116
-0.0011
0.1375
0.6582
1.2342
1.009
0.3308
0.048
0.012
-0.0233
-0.0101
0.024
-0.0052
0.0166
-0.0146
0.0071
-0.0198
-0.0807
-0.1633
-0.1729
-0.1062
-0.0267
-0.016
0.0231
-0.0092
-0.003
0.0018
-0.025
-0.0308
0.0137
-0.0113
0.0038
-0.013
-0.0307
-0.005
-0.0058
-0.0081
0.0024
-0.0022
0.0078
0.048
0.0452
0.0102
0.0357
0.0654
0.0982
0.1098
0.1329
0.1569
0.1776
0.205
0.2038
0.251
0.2799
0.2929
0.3077
0.3246
0.3557
0.3488
0.3235
0.369
0.329
0.3052
0.2929
0.2647
0.2306
0.2513
0.1999
0.1759
0.1456
0.1164
0.1081
0.078
0.0571
0.0236
0.0318
0.0199
0.0079
-0.0006
0.028
0.0171
0.0251
-0.0105
-0.0004
0.0044
0.0189
0.0097
-0.0117
-0.0102
-0.0211
-0.0221
-0.0044
-0.0129
-0.009
-0.0009
-0.0001
-0.0103
0.0262
-0.0009
0.0157
0.0169
0.0063
0.0057
-0.0064
0.0172
-0.0026
-0.0034
0.0088
-0.0088
0.0109
0.0097
0.0153
0.0395
0.0212
-0.0113
-0.0014
-0.0214
0.015
0.0317
0.0037
0.0002
0.0063
0.0174
-0.0102
-0.0043
-0.0151
0.0024
0.0005
-0.0135
0.0003
-0.0222
0.0171
0.0137
0.0151
-0.0136
-0.0341
-0.0054
0.0014
-0.0181
0.0197
-0.0034
0.0157
0.0051
0.016
-0.0049
0.0023
-0.027
0.0318
-0.0168
0.0054
-0.0157
-0.032
0.0173
0.0284
-0.0173
0.0039
0.0052
-0.0021
0.0145
0.0068
0.0089
0.0033
0.01
-0.0014
0.0032
-0.0067
-0.0154
0.0056
-0.0088
-0.0158
0.0098
0.0033
-0.0292
-0.0054
-0.0028
0.0153
0.0009
0.0081
-0.0317
-0.0144
-0.0032
0.0115
-0.0024
-0.0037
0.0138
-0.03
-0.0309
-0.0179
0.0216
0.0035
0.0089
0.0095
0.0232
-0.0079
-0.0015
-0.0154
-0.0167
0.0201
0.006
0.0142
0.018
-0.0133
0.0083
0.0095
-0.0109
-0.02
0.0046
0.0124
-0.018
0.0133
0.0122
0.0211
-0.0142
0.002
0.0259
-0.0078
-0.0117
0.002
-0.0083
-0.0008
-0.0323
0.0089
-0.0186
0.0162
-0.0282
0.038
-0.0239
0.0415
0.006
0.0012
0.0028
-0.0061
0.0166
0.0289
0.0083
0.0298
-0.0141
0.021
0.0236
0.0186
0.0135
-0.0007
0.0043
0.0336
-0.0162
0.01
-0.0168
-0.0003
0.0142
0.0077
0.0089
0.0002
-0.0152
0.0001
-0.0144
0.0037
0.0048
-0.0063
0.0019
0.0208
0.012
0.0068
0.0042
-0.0085
-0.0085
-0.0022
-0.0041
-0.0109
0.0394
-0.0261
-0.0013
-0.0012
-0.0052
0.0106
-0.0038
0.0268
0.0046
0.0028
-0.0096
0.0306
0.0088
0.0409
0.0031
0.0175
0.0115
0.021
0.0097
0.0034
-0.009
-0.0142
-0.0049
-0.0209
-0.0026
-0.0132
0.005
-0.0056
-0.0033
-0.0024
0.0243
0.0028
-0.0057
-0.0073
-0.0029
0.0078
-0.0072
-0.0178
0.0253
-0.0105
0.003
0.0036
-0.0144
-0.0188
-0.0138
0.0094
0.037
0.0084
-0.0007
0.0071
0.0079
0.0023
0.0078
0.0028
-0.0116
0.0414
0.0155
-0.0037
0.026
-0.0245
-0.0077
0.0099
-0.0486
-0.0163
-0.0217
0.0189
-0.0222
0.0118
0.0191
0.0141
0.0102
-0.023
-0.0001
0.0098
-0.0089
0.0141
-0.0154
0.0084
-0.0233
-0.0202
0.0072
0.0224
-0.0435
-0.0029
0.0141
-0.0185
0.0103
0.0028
0.0131
-0.0075
0.023
0.0142
-0.0207
0.0219
-0.0096
0.0032
0.0101
0.0001
-0.0032
0.0159
0.0151
-0.0012
0.0015
0.007
0.0103
0.006
0.005
-0.0041
-0.0031
0.0092
0.0277
0.0141
-0.0111
0.0087
0.0099
-0.0001
-0.0072
-0.0007
-0.0006
-0.0009
0.0047
-0.0276
0.0161
0.0156
-0.0078
-0.0024
0.0036
-0.0304
0.0193
0.021
0.005
-0.0035
0.0205
0.0201
0.0309
-0.0051
0.0166
-0.0062
0.0039
0.0152
-0.0018
0.0138
-0.0072
-0.0337
0.0231
-0.0108
-0.0013
-0.0092
0.0175
0.007
0.0
-0.008
0.0002
0.0229
-0.0038
-0.0209
0.0322
0.0163
0.0029
0.0211
-0.0042
0.0023
0.0061
-0.0193
-0.0098
-0.0001
0.0223
-0.0165
-0.0086
0.0474
-0.0203
-0.004
0.0107
0.0319
0.0183
0.0367
0.0863
0.0791
0.1499
0.1538
0.1908
0.1476
0.1434
0.1394
0.0749
0.0611
0.0207
0.0123
-0.0018
-0.0126
-0.0083
-0.0104
0.0211
-0.0108
0.0184
-0.0015
-0.0291
-0.0179
0.0016
-0.0026
0.0101
-0.005
-0.0309
-0.0192
-0.0067
-0.0377
-0.0516
-0.0227
-0.0435
-0.0156
-0.0125
-0.0098
-0.0088
0.0215
0.2034
0.7613
1.2746
0.9308
0.2892
0.0433
-0.0022
0.0
-0.0
-0.0028
-0.022
-0.01
-0.0003
-0.0229
-0.0455
-0.0898
-0.1747
-0.1834
-0.0713
-0.0348
-0.0206
0.0219
-0.0333
0.0013
-0.0042
0.0125
-0.0005
-0.0087
0.0029
0.0092
0.0163
0.0067
0.0096
0.0203
0.0178
-0.0249
0.0056
0.0047
0.0531
0.0471
0.0206
0.0635
0.0949
0.1074
0.123
0.1322
0.1457
0.1873
0.2296
0.2263
0.268
0.2744
0.3022
0.325
0.3478
0.3432
0.3526
0.3321
0.3334
0.341
0.3319
0.2897
0.2749
0.2447
0.2307
0.1798
0.1927
0.1341
0.1192
0.1003
0.0772
0.0556
0.0362
0.0275
0.0158
0.0251
0.0136
-0.0046
0.0336
0.0196
0.0084
-0.0188
-0.0022
-0.0002
-0.0186
-0.011
-0.0131
0.0155
-0.0253
0.0041
-0.008
0.0005
0.0081
-0.0171
-0.0072
-0.0055
0.0031
0.0164
0.0257
-0.0019
0.02
0.0233
0.0025
-0.0278
0.0245
0.0158
0.006
-0.0115
-0.0095
-0.0091
-0.0197
0.025
0.0078
0.0076
0.0067
0.0088
-0.0045
0.0033
0.0149
0.0127
0.0015
-0.0018
-0.0071
0.0115
0.0026
0.0089
-0.0032
0.0061
0.0309
0.0122
-0.0002
-0.0015
0.0045
-0.0208
-0.0118
-0.0115
-0.0093
-0.0147
0.0073
-0.0077
0.0164
0.0072
-0.0032
0.0325
-0.0018
0.0104
0.004
0.0124
-0.0049
-0.0145
-0.0125
-0.0286
0.001
-0.0031
0.002
-0.0208
0.0056
-0.004
0.0008
-0.0127
-0.0135
-0.0025
0.0038
-0.0126
-0.0258
-0.0085
-0.0111
0.0087
0.0012
-0.0283
-0.0388
-0.0185
0.0011
-0.0014
0.0023
-0.0074
-0.0045
-0.003
-0.0157
0.0018
-0.0221
-0.0094
-0.0212
-0.0089
-0.0044
-0.0153
-0.022
-0.0339
0.0067
-0.0409
-0.0128
0.0093
0.0002
-0.0123
-0.0264
-0.0149
-0.0094
-0.023
0.0255
0.0014
0.0184
-0.012
0.0229
0.0282
0.0076
-0.0099
-0.0122
0.0129
0.0105
-0.0327
-0.0153
-0.0045
-0.0111
-0.0084
0.0213
-0.0176
-0.0032
-0.0087
-0.0337
0.0112
-0.0139
0.0132
-0.0046
-0.0114
0.0175
-0.003
0.0058
0.0221
-0.0001
0.0185
0.0057
0.0196
-0.0159
-0.023
0.0235
0.02
0.0095
0.0199
0.0058
-0.0132
-0.0092
-0.0039
0.016
0.0339
0.0094
0.0234
0.0202
0.0214
0.0059
0.0199
0.003
-0.0043
-0.0019
-0.0041
0.0025
-0.0249
-0.011
-0.012
-0.0231
0.0146
0.006
0.0113
0.0039
0.0079
-0.0024
-0.0058
-0.0116
-0.0173
-0.0089
0.0117
-0.0041
-0.0078
0.0136
-0.009
0.0023
-0.0053
-0.0008
-0.0035
-0.0298
0.0232
-0.0106
0.0007
-0.0145
-0.0001
0.0193
0.0129
-0.0049
-0.0371
0.0133
0.0016
0.0212
-0.0049
0.0184
-0.0216
0.0142
0.0067
-0.0029
0.003
-0.0121
-0.0304
-0.0039
0.0249
0.0226
-0.0069
0.0103
-0.025
0.0009
-0.0041
0.0005
-0.0119
-0.0081
0.0022
-0.0067
0.001
0.0295
0.0213
0.0038
0.0058
0.0085
-0.0035
-0.0037
0.0335
-0.0014
-0.0014
0.0064
-0.0272
0.0224
0.0102
-0.0098
-0.0106
0.0126
0.0005
-0.0042
0.0337
0.0108
0.0176
-0.0074
0.0017
0.0121
0.0019
0.0047
-0.0109
-0.0197
-0.0028
0.0096
0.0148
-0.0089
-0.0053
0.0021
0.0229
-0.0
0.0053
-0.0187
-0.005
-0.0085
0.0084
0.006
-0.0083
-0.0012
0.0047
-0.016
0.0178
-0.0233
-0.0123
-0.0222
-0.0015
-0.005
0.0235
-0.0126
-0.0084
0.0138
0.0248
0.0076
-0.0188
0.0215
-0.0118
-0.0148
0.0004
-0.0071
0.0057
-0.016
-0.0254
0.0085
-0.0043
-0.0239
-0.0269
0.012
0.0012
-0.0044
-0.0044
0.0083
-0.006
0.0102
-0.0137
-0.0163
-0.0051
0.0049
0.0214
0.019
0.0236
0.0046
-0.0033
0.0026
0.0054
0.0012
-0.0066
-0.0122
-0.0111
0.0095
0.0052
0.0162
0.0213
-0.0102
-0.007
-0.0233
-0.0204
0.0093
0.0277
0.0313
-0.024
0.0013
0.0042
0.0021
0.0002
0.0013
-0.0074
-0.0069
-0.0222
-0.0029
0.0145
-0.0013
0.0059
-0.0046
0.0124
0.0026
-0.021
0.0021
0.0088
0.0046
0.0323
0.0118
0.0499
0.0682
0.1196
0.1385
0.159
0.1925
0.1504
0.1436
0.1096
0.108
0.041
0.0499
0.0452
0.0252
0.0203
0.0215
-0.0077
-0.0174
-0.0029
0.0065
0.019
0.0142
0.0234
0.0316
0.0077
0.0215
0.004
0.0051
-0.0181
-0.0225
-0.038
-0.051
-0.0364
0.0035
-0.0081
-0.0073
-0.0173
0.0037
0.0267
0.2058
0.8079
1.2889
0.9202
0.2506
0.0348
0.0098
0.0315
0.0099
0.0096
-0.0037
0.0315
-0.0012
-0.0009
-0.0327
-0.0957
-0.1618
-0.1582
-0.1024
-0.0299
-0.0089
0.0065
-0.0109
-0.02
0.0075
-0.0025
0.0312
0.003
-0.0074
0.0043
0.0016
-0.0014
0.0058
0.0363
0.0291
-0.0019
0.0013
0.0403
0.0202
0.0299
0.0351
0.0961
0.0698
0.0817
0.0911
0.1234
0.1565
0.1902
0.2082
0.2573
0.2685
0.294
0.3247
0.3421
0.3398
0.3279
0.3462
0.3357
0.3532
0.3193
0.3291
0.3059
0.2462
0.2372
0.225
0.1666
0.1657
0.1648
0.1244
0.1047
0.0615
0.0346
0.0459
0.0253
0.038
0.0266
-0.006
0.0294
-0.0048
0.0173
0.0073
-0.0163
0.0141
0.0231
-0.011
0.031
0.0087
0.0015
-0.007
-0.0183
0.0054
0.0348
-0.0379
-0.0074
-0.0025
0.0278
-0.0201
-0.0036
0.0122
0.0126
-0.0046
-0.0015
-0.0162
0.0342
0.0214
-0.0116
-0.0074
0.0002
-0.0186
0.0163
0.0038
0.0047
-0.0145
-0.0067
0.0181
-0.0089
0.0201
-0.0377
0.0281
-0.001
-0.0119
0.0243
0.014
0.0028
-0.0115
0.0023
-0.0276
0.0154
0.0069
-0.0161
0.0221
0.0197
0.017
0.0149
0.0106
0.0188
-0.0212
-0.004
0.0122
-0.0091
0.0244
0.0071
0.0169
0.0026
0.0109
0.0098
0.0209
0.0105
0.0274
0.0089
-0.0033
-0.0175
0.0057
0.0178
0.0018
0.031
0.004
-0.0103
-0.0207
-0.0199
-0.0078
-0.0132
0.0007
-0.0233
-0.0173
-0.0182
0.0275
-0.0049
-0.0214
-0.0135
-0.0008
0.0099
0.0139
0.0218
0.0087
0.0235
0.0235
0.0073
0.0016
0.0245
-0.019
-0.0201
-0.0018
0.0019
-0.0201
-0.0125
0.0318
-0.0192
0.0007
-0.0046
0.0259
0.0077
-0.0274
-0.014
-0.0098
0.0193
0.0078
0.0098
0.0122
0.006
-0.006
0.0015
-0.0133
0.011
0.0026
-0.002
0.0153
0.0308
0.0117
-0.0214
0.0073
-0.0404
0.013
0.0208
0.0031
0.0042
0.0059
0.0125
-0.0174
-0.0017
-0.0211
0.0095
0.0106
0.0233
0.0083
0.0207
-0.0093
0.0085
0.0268
-0.0081
0.0383
-0.0267
0.0163
0.0108
-0.0111
0.0011
-0.0143
-0.0061
0.0114
0.0067
0.0019
-0.0287
-0.0105
0.001
0.0144
-0.0041
0.0075
-0.0228
0.0129
-0.0055
-0.0241
-0.0039
-0.0184
-0.0147
-0.0304
0.015
0.0026
0.02
-0.0092
-0.0187
0.01
-0.0165
-0.0022
-0.0026
-0.0167
0.0181
-0.0028
0.0107
0.0201
0.0145
-0.0069
-0.0015
-0.003
0.0033
-0.0143
-0.0003
-0.0023
0.0082
0.0166
-0.0068
0.0186
-0.0245
-0.0007
0.0081
-0.0113
-0.0117
0.0051
-0.0077
0.0219
-0.0434
-0.007
0.0092
0.0005
0.0112
0.0089
0.0068
0.0115
0.0121
0.0192
-0.0019
-0.005
0.0126
-0.0041
0.0043
0.0
0.0139
-0.0173
0.0041
-0.001
-0.007
0.0177
-0.013
-0.0088
-0.0024
-0.006
0.0002
0.0109
-0.0078
0.0162
-0.0053
0.0251
-0.0048
-0.0068
0.0156
-0.0222
-0.0379
0.0217
0.0061
0.0085
0.0143
0.0101
0.0162
-0.021
0.0075
-0.0008
0.0065
0.0013
0.0083
-0.0037
0.0188
0.0011
-0.006
-0.003
0.0061
-0.0182
0.0235
-0.0123
0.0053
0.0143
-0.0416
-0.0133
0.0004
0.0202
0.0207
-0.0111
-0.0338
0.0055
0.0253
0.0013
-0.0212
-0.0148
-0.014
-0.005
-0.0142
-0.0139
0.006
0.0277
0.0114
0.0179
0.0151
0.0188
0.0191
-0.004
-0.0087
-0.0002
-0.0004
-0.0296
0.0287
0.0052
-0.0108
0.0044
-0.0009
0.0031
0.0171
-0.0038
0.0139
0.0298
0.0198
-0.0113
-0.0361
0.0118
0.0292
-0.0087
0.013
-0.007
0.0064
-0.0006
-0.0178
-0.0173
-0.01
0.0003
-0.0029
0.0245
0.0286
-0.0242
0.0013
-0.0102
-0.0112
0.0063
-0.006
-0.0245
-0.007
-0.0034
-0.018
-0.0127
-0.0106
-0.0185
0.0064
-0.0097
0.0108
-0.015
0.0009
0.0148
0.0077
0.0261
-0.0002
-0.0117
-0.0412
-0.0164
0.0225
-0.0373
-0.0178
-0.0026
0.0035
0.0158
-0.0073
0.0011
0.0337
0.0428
0.0246
0.0495
0.0721
0.0759
0.1064
0.1596
0.1866
0.1896
0.1562
0.1106
0.1126
0.1016
0.059
0.0695
0.0215
0.0339
-0.0066
0.0112
0.0255
0.0141
-0.0077
-0.0062
0.0108
0.0098
-0.0183
-0.0251
0.0147
0.0012
-0.012
-0.0107
-0.0172
-0.0413
-0.0399
-0.0425
0.0067
0.0085
0.0036
0.0381
0.016
-0.0092
0.0173
0.249
0.8616
1.2782
0.81
0.2296
0.014
0.0072
0.0161
-0.0046
0.0021
0.0012
-0.0103
0.0099
0.0153
-0.0242
-0.1153
-0.188
-0.1702
-0.096
-0.027
-0.0076
0.0002
0.0207
-0.0224
-0.0074
-0.0058
-0.0083
0.0001
-0.0103
-0.0021
0.0318
0.0171
0.013
-0.0177
0.0205
0.0226
0.0223
0.0101
0.0191
0.0336
0.0378
0.0658
0.0722
0.096
0.133
0.1242
0.1375
0.1862
0.226
0.2643
0.2603
0.2808
0.3366
0.3379
0.3544
0.3269
0.3289
0.3436
0.2952
0.3348
0.3049
0.2704
0.2772
0.2062
0.2181
0.1772
0.1436
0.1303
0.1121
0.0932
0.0732
0.0518
0.0465
0.0351
0.0182
0.0088
0.0123
0.0202
0.0003
0.0083
-0.0082
-0.0386
-0.0153
-0.0036
0.0333
-0.0064
-0.0135
-0.0186
0.0243
-0.0167
-0.0061
0.0158
-0.0002
0.0114
-0.0316
-0.0069
0.0214
-0.0093
-0.0182
-0.0181
-0.0169
0.0111
-0.018
-0.0088
-0.0185
-0.0145
0.002
-0.0013
-0.0062
-0.0002
-0.0012
-0.013
0.0094
-0.0186
0.0029
0.0015
0.016
-0.0119
-0.0044
0.0123
0.024
-0.0316
-0.0015
0.0016
-0.0056
0.0091
-0.0195
0.0049
0.0078
-0.0081
-0.0043
0.0084
0.0071
-0.0043
0.0088
0.0035
-0.0134
0.0004
-0.02
-0.0139
0.0069
0.0279
0.0125
-0.0093
0.0045
0.0165
0.0043
-0.0103
-0.0192
0.0247
-0.0169
-0.0257
0.0182
0.0086
-0.0231
-0.0156
-0.0122
0.0058
0.0027
-0.0023
-0.0056
-0.0163
-0.0095
0.0061
-0.021
0.0128
0.0072
-0.016
0.001
0.0219
-0.0392
-0.0003
-0.005
-0.0057
0.0122
0.0212
0.0023
0.0223
-0.0202
0.0184
-0.0273
-0.0134
0.0336
0.0003
-0.0115
0.0004
-0.0021
-0.013
-0.021
-0.0108
-0.0032
-0.002
0.0126
-0.0016
-0.0085
-0.0213
-0.0288
-0.0058
-0.0015
-0.014
-0.0046
0.0005
0.0092
0.0072
-0.0029
-0.0003
0.002
-0.0034
-0.0081
-0.0152
0.0076
0.0088
0.0021
-0.0054
0.0039
-0.0053
-0.0157
-0.0157
0.0348
-0.0058
-0.0179
0.0009
0.0009
-0.0046
-0.0105
0.0242
-0.0029
-0.0022
0.0039
0.014
-0.021
0.0172
0.0118
-0.0064
0.0261
0.0134
-0.0073
-0.0152
0.0307
-0.0232
-0.0059
0.014
0.0079
-0.026
0.01
0.0076
0.0041
-0.0047
-0.0042
-0.0184
0.021
-0.0074
0.0058
-0.0099
0.0158
-0.0098
0.021
0.004
0.0104
0.0087
0.0301
0.0074
-0.0132
0.0289
0.0006
0.0059
-0.0356
-0.0133
0.0333
-0.0135
-0.0003
0.0068
0.0293
-0.0016
-0.0099
0.0153
0.0187
0.0269
0.0113
0.0045
0.0265
0.0142
-0.0137
0.0109
-0.0223
-0.0058
0.0041
-0.014
-0.0233
0.0159
0.008
0.0082
0.0088
-0.0017
-0.0068
0.006
-0.0279
0.0087
0.0084
-0.0067
-0.0378
0.0161
0.0462
-0.0043
-0.0006
0.0271
-0.014
0.0028
0.0069
0.0191
0.0114
-0.007
0.0137
0.0111
0.0163
-0.0171
-0.0091
0.0024
-0.0069
0.0092
-0.0174
-0.0137
0.0133
-0.0023
0.0061
0.0151
0.0216
-0.0103
0.0044
0.0122
0.0152
0.002
0.0053
-0.0305
-0.0001
0.0097
0.0127
-0.0066
0.0019
0.0218
-0.0101
0.0034
0.0004
0.0088
-0.0021
0.0003
0.0091
0.0419
-0.0229
-0.0071
-0.0095
-0.0215
-0.0061
-0.0157
0.0017
-0.0147
-0.0028
0.0135
-0.0202
0.0218
-0.0054
-0.0333
0.0045
-0.0075
-0.0172
-0.0005
0.0075
0.0197
-0.0087
0.0143
0.0063
0.0187
-0.0095
-0.0046
0.0267
-0.0076
0.0002
-0.0214
0.0015
0.021
0.014
0.0161
0.0078
-0.0113
0.0296
0.002
0.0139
0.0208
0.0037
-0.0361
0.0019
-0.0116
0.0121
-0.0179
0.0153
0.0151
-0.0169
-0.0083
0.0088
0.0286
0.0053
0.0212
-0.0095
-0.015
-0.0238
0.0149
-0.0108
0.0262
-0.0012
-0.0101
0.0154
-0.0222
-0.0045
-0.006
-0.0398
-0.0051
0.0051
0.0162
-0.0136
-0.0001
-0.0025
-0.007
-0.0034
0.0361
0.0114
-0.0118
-0.0084
-0.0139
-0.0027
0.0124
0.0008
0.0041
0.004
-0.0073
-0.0193
-0.0001
0.0206
-0.0104
0.0043
0.0031
0.0528
0.0477
0.0739
0.1227
0.1504
0.1681
0.1799
0.1584
0.1664
0.1131
0.0928
0.0671
0.0422
0.0221
-0.0035
0.0233
0.0143
0.009
-0.0068
-0.0164
-0.0232
-0.0077
0.0047
0.0012
-0.0106
0.0078
0.0089
0.0061
-0.0015
0.0079
-0.0095
-0.0553
-0.033
-0.0172
0.0059
-0.0178
0.0046
-0.0107
0.0166
0.0308
0.2706
0.9428
1.3001
0.7652
0.2099
-0.0182
0.0114
0.0171
-0.0244
-0.0043
-0.0122
-0.0031
-0.0153
0.005
-0.0232
-0.1147
-0.178
-0.164
-0.1079
-0.0321
0.014
-0.0036
0.0175
0.0037
0.002
0.0076
0.0009
-0.013
0.0006
0.0121
0.0114
-0.011
0.0088
-0.0048
0.0138
0.0332
0.0278
0.0192
0.0348
0.0329
0.0364
0.0736
0.0643
0.1103
0.0997
0.1444
0.1511
0.1878
0.2317
0.2469
0.2796
0.2634
0.3127
0.333
0.3392
0.3753
0.3491
0.3507
0.3245
0.3222
0.283
0.3
0.2725
0.2349
0.2093
0.1931
0.1596
0.1413
0.1109
0.0696
0.0809
0.0408
0.0599
0.045
0.0218
0.0243
0.0103
0.009
0.0241
0.0218
0.0046
0.0009
0.0128
0.0004
0.0084
0.0147
0.0016
0.0118
0.0194
0.0139
-0.0083
0.011
0.0064
-0.0156
0.0142
-0.0372
-0.0209
-0.0123
0.0342
0.0033
0.0076
0.0029
-0.0001
0.0006
-0.0228
-0.0172
0.005
-0.0084
-0.0076
-0.0045
-0.0081
0.0101
-0.0075
-0.0104
0.0019
0.0105
-0.006
-0.0108
0.0089
-0.0217
-0.0041
-0.0143
0.0452
-0.0095
0.013
-0.0079
-0.0463
-0.0258
0.0152
0.0245
-0.0028
0.0132
-0.0276
-0.0037
-0.0023
0.0289
0.0244
-0.0319
0.0416
0.0323
0.0317
0.016
-0.0068
0.0086
0.0118
-0.0129
0.0073
-0.0131
0.0023
-0.0132
-0.0132
-0.0068
0.0028
0.0277
0.0155
0.0186
-0.0007
-0.013
-0.0009
-0.0009
-0.0128
0.0167
-0.01
-0.0038
0.0043
0.0039
-0.0066
0.0233
-0.0219
0.0156
-0.0306
0.0357
-0.0121
0.0087
0.008
-0.0102
0.0228
-0.0244
0.0027
-0.0048
-0.0171
0.0108
0.0024
-0.0127
-0.016
0.0022
0.0022
0.0242
-0.0005
-0.0023
0.006
0.0395
-0.0018
0.028
-0.0084
0.0019
-0.0056
-0.0073
0.0339
0.0151
0.0193
0.0116
0.0093
0.0119
0.0115
0.0161
0.006
-0.004
-0.0083
-0.0036
-0.0149
-0.0451
-0.0208
0.0292
-0.0272
-0.0155
0.0057
0.0193
0.0096
-0.0102
0.0164
0.013
-0.0122
-0.024
-0.0096
-0.0048
-0.0059
-0.0017
0.0234
0.0281
0.0388
-0.0081
-0.0112
-0.0173
0.0108
0.0234
-0.0284
-0.0081
-0.0008
0.027
-0.0421
0.0205
-0.0029
-0.0226
-0.0018
-0.0109
-0.0194
-0.0145
0.0281
0.0173
-0.0104
-0.007
-0.0106
-0.0088
-0.0279
-0.0333
0.01
-0.0117
0.0234
0.0053
0.0143
-0.0185
0.0075
-0.0031
-0.0071
0.0131
0.0229
-0.0081
0.0014
-0.0082
0.0168
0.0103
0.0141
-0.0068
-0.0213
0.005
0.0064
0.0155
-0.0173
-0.0124
-0.041
0.0074
0.0046
0.0072
-0.0141
-0.0058
0.0063
-0.0118
-0.0048
-0.0052
-0.01
-0.0125
0.0074
0.0148
0.0025
-0.0276
-0.016
-0.0008
-0.0031
0.0172
-0.0073
-0.0069
0.0299
0.0212
-0.0161
0.0023
-0.0032
0.0011
-0.0204
0.0143
0.0148
-0.0373
-0.0009
-0.0031
0.0051
0.0017
0.0005
0.0135
-0.0138
-0.0167
0.0112
-0.013
-0.0208
0.0138
-0.0073
-0.0021
0.0027
0.0054
0.0084
0.0173
0.0243
0.0081
-0.013
0.002
-0.0069
-0.0132
-0.0086
-0.0107
0.0302
-0.0015
-0.0072
-0.0005
0.0037
-0.0136
-0.0015
0.0078
-0.0117
0.0055
-0.0211
0.0044
0.0136
-0.0074
0.0285
-0.0192
-0.0095
-0.0052
0.0038
-0.0061
0.0002
0.0113
-0.0181
0.0258
-0.0119
-0.021
0.0249
0.0369
0.0227
-0.0112
0.0123
0.0139
0.017
-0.0178
0.0167
0.0016
0.0108
0.0168
0.0056
-0.0357
-0.0041
-0.0027
-0.0081
0.029
0.0138
-0.0072
-0.0034
0.0193
-0.0187
0.0123
-0.0181
0.0085
-0.0218
-0.0343
-0.0018
-0.0137
0.0262
0.0123
0.0336
0.0186
0.0236
-0.0233
0.0103
0.0089
0.0047
0.02
-0.0065
0.0117
0.0076
-0.0154
-0.0266
-0.0174
0.0147
0.0125
-0.0126
-0.0242
-0.0204
0.0022
-0.0125
0.0023
0.0133
0.017
-0.0111
-0.0039
-0.0087
-0.0029
0.0031
0.0189
-0.0151
0.0074
0.003
-0.006
0.0016
-0.0038
-0.0052
-0.0196
-0.0024
0.0049
-0.0234
0.0096
0.0143
0.0107
0.0488
0.0529
0.0893
0.1051
0.1659
0.1691
0.192
0.1796
0.1422
0.1327
0.0603
0.0629
0.0633
-0.0096
-0.0121
0.0211
-0.0051
0.017
-0.0192
0.0066
0.0131
-0.001
0.0154
0.0139
0.023
-0.0226
0.0156
-0.0063
0.0313
-0.0155
-0.0369
-0.0632
-0.0269
-0.0011
0.0132
0.0064
0.019
0.0196
0.0096
0.034
0.3272
0.979
1.2899
0.6888
0.1575
0.0266
0.029
-0.0139
-0.0182
-0.0266
-0.0208
-0.0082
0.0221
0.0032
-0.0393
-0.1431
-0.1629
-0.1444
-0.0745
-0.0363
-0.0303
-0.0032
